Time,Channel A,Channel B
(ms),(V),(V)

-0.00151613,-0.47244096,-2.51968503
-0.00051613,-0.47244096,-2.51968503
0.00048387,-0.39370078,2.36220479
0.00148387,0.55118108,2.36220479
0.00248387,0.62992126,2.40157485
0.00348387,0.70866144,2.40157485
0.00448387,0.86614174,2.40157485
0.00548387,1.10236216,2.40157485
0.00648387,1.33858263,2.44094491
0.00748387,1.73228347,2.40157485
0.00848387,2.04724407,2.40157485
0.00948387,2.36220479,2.44094491
0.01048387,2.75590539,2.44094491
0.01148387,3.07086611,2.44094491
0.01248387,3.38582683,2.48031497
0.01348387,3.62204719,2.44094491
0.01448387,3.93700790,2.44094491
0.01548387,4.17322826,2.44094491
0.01648387,4.40944862,2.44094491
0.01748387,4.64566946,2.44094491
0.01848387,4.80314970,2.48031497
0.01948387,4.96062994,2.48031497
0.02048387,5.11811018,2.48031497
0.02148387,5.35433054,2.44094491
0.02248387,5.51181078,2.48031497
0.02348387,5.59055138,2.44094491
0.02448387,5.74803162,2.44094491
0.02548387,5.90551186,2.48031497
0.02648387,5.98425198,2.48031497
0.02748387,6.06299210,2.48031497
0.02848387,6.14173222,2.44094491
0.02948387,6.14173222,2.48031497
0.03048387,6.14173222,2.48031497
0.03148387,6.22047234,2.48031497
0.03248387,6.14173222,2.48031497
0.03348387,6.14173222,2.48031497
0.03448387,6.06299210,2.48031497
0.03548387,5.90551186,2.48031497
0.03648387,5.74803162,2.48031497
0.03748387,5.59055138,2.51968503
0.03848387,5.35433054,2.48031497
0.03948387,5.11811018,2.48031497
0.04048387,4.80314970,2.48031497
0.04148387,4.48818874,2.48031497
0.04248387,4.17322826,2.48031497
0.04348387,3.85826778,2.48031497
0.04448387,3.46456695,2.48031497
0.04548387,3.14960623,2.48031497
0.04648387,2.75590539,2.48031497
0.04748387,2.36220479,2.48031497
0.04848387,1.96850395,2.48031497
0.04948387,1.49606299,2.48031497
0.05048387,1.10236216,2.48031497
0.05148387,0.62992126,2.44094491
0.05248387,0.15748031,2.48031497
0.05348387,-0.31496063,2.48031497
0.05448387,-0.78740156,2.51968503
0.05548387,-1.25984251,2.48031497
0.05648387,-1.81102359,2.51968503
0.05748387,-2.36220479,2.48031497
0.05848387,-2.91338587,2.48031497
0.05948387,-3.46456695,2.48031497
0.06048387,-4.01574802,2.48031497
0.06148387,-4.48818874,2.48031497
0.06248387,-5.27559042,-2.36220479
0.06348387,5.74803162,-2.36220479
0.06448387,5.90551186,-2.40157485
0.06548387,6.37795258,-2.40157485
0.06648387,6.77165365,-2.40157485
0.06748387,7.08661413,-2.40157485
0.06848387,7.16535425,-2.40157485
0.06948387,7.16535425,-2.44094491
0.07048387,7.08661413,-2.44094491
0.07148387,6.85039377,-2.44094491
0.07248387,6.53543282,-2.44094491
0.07348387,6.22047234,-2.48031497
0.07448387,5.98425198,-2.44094491
0.07548387,5.74803162,-2.48031497
0.07648387,5.51181078,-2.48031497
0.07748387,5.27559042,-2.48031497
0.07848387,5.11811018,-2.48031497
0.07948387,4.96062994,-2.48031497
0.08048387,4.80314970,-2.44094491
0.08148387,4.64566946,-2.48031497
0.08248387,4.40944862,-2.48031497
0.08348387,4.25196838,-2.48031497
0.08448387,4.01574802,-2.48031497
0.08548387,3.85826778,-2.48031497
0.08648387,3.62204719,-2.48031497
0.08748387,3.38582683,-2.48031497
0.08848387,3.22834635,-2.44094491
0.08948387,3.07086611,-2.48031497
0.09048387,2.83464575,-2.48031497
0.09148387,2.67716527,-2.48031497
0.09248387,2.44094491,-2.48031497
0.09348387,2.28346467,-2.48031497
0.09448387,2.12598419,-2.48031497
0.09548387,1.96850395,-2.51968503
0.09648387,1.81102359,-2.48031497
0.09748387,1.73228347,-2.48031497
0.09848387,1.65354335,-2.48031497
0.09948387,1.57480311,-2.48031497
0.10048387,1.57480311,-2.48031497
0.10148387,1.49606299,-2.48031497
0.10248387,1.41732287,-2.48031497
0.10348387,1.33858263,-2.48031497
0.10448387,1.25984251,-2.51968503
0.10548387,1.18110240,-2.48031497
0.10648387,1.02362204,-2.51968503
0.10748387,0.94488192,-2.48031497
0.10848387,0.78740156,-2.48031497
0.10948387,0.70866144,-2.48031497
0.11048387,0.55118108,-2.48031497
0.11148387,0.47244096,-2.48031497
0.11248387,0.31496063,-2.48031497
0.11348387,0.23622048,-2.51968503
0.11448387,0.07874016,-2.48031497
0.11548387,0.00000000,-2.51968503
0.11648387,-0.15748031,-2.48031497
0.11748387,-0.23622048,-2.51968503
0.11848387,-0.31496063,-2.51968503
0.11948387,-0.31496063,-2.48031497
0.12048387,-0.31496063,-2.48031497
0.12148387,-0.39370078,-2.51968503
0.12248387,-0.39370078,-2.51968503
0.12348387,-0.39370078,-2.48031497
0.12448387,-0.47244096,-2.48031497
0.12548387,-0.39370078,2.32283473
0.12648387,0.62992126,2.36220479
0.12748387,0.70866144,2.36220479
0.12848387,0.78740156,2.40157485
0.12948387,0.94488192,2.40157485
0.13048387,1.25984251,2.40157485
0.13148387,1.49606299,2.40157485
0.13248387,1.88976383,2.44094491
0.13348387,2.20472431,2.44094491
0.13448387,2.59842515,2.44094491
0.13548387,2.91338587,2.44094491
0.13648387,3.30708671,2.44094491
0.13748387,3.54330707,2.44094491
0.13848387,3.77952766,2.44094491
0.13948387,4.01574802,2.44094491
0.14048387,4.25196838,2.44094491
0.14148387,4.40944862,2.44094491
0.14248387,4.64566946,2.44094491
0.14348387,4.80314970,2.48031497
0.14448387,5.03937006,2.44094491
0.14548387,5.19685030,2.44094491
0.14648387,5.35433054,2.48031497
0.14748387,5.59055138,2.48031497
0.14848387,5.74803162,2.48031497
0.14948387,5.90551186,2.44094491
0.15048387,5.98425198,2.48031497
0.15148387,6.14173222,2.44094491
0.15248387,6.14173222,2.44094491
0.15348387,6.22047234,2.44094491
0.15448387,6.29921246,2.48031497
0.15548387,6.37795258,2.48031497
0.15648387,6.29921246,2.48031497
0.15748387,6.29921246,2.48031497
0.15848387,6.22047234,2.48031497
0.15948387,6.06299210,2.44094491
0.16048387,5.90551186,2.48031497
0.16148387,5.66929150,2.48031497
0.16248387,5.51181078,2.51968503
0.16348387,5.27559042,2.48031497
0.16448387,4.96062994,2.48031497
0.16548387,4.72440958,2.48031497
0.16648387,4.40944862,2.48031497
0.16748387,4.09448814,2.48031497
0.16848387,3.77952766,2.48031497
0.16948387,3.46456695,2.48031497
0.17048387,3.07086611,2.48031497
0.17148387,2.75590539,2.48031497
0.17248387,2.36220479,2.48031497
0.17348387,1.88976383,2.48031497
0.17448387,1.49606299,2.48031497
0.17548387,1.10236216,2.48031497
0.17648387,0.62992126,2.48031497
0.17748387,0.07874016,2.48031497
0.17848387,-0.39370078,2.51968503
0.17948387,-0.86614174,2.48031497
0.18048387,-1.49606299,2.48031497
0.18148387,-2.04724407,2.48031497
0.18248387,-2.59842515,2.48031497
0.18348387,-3.14960623,2.51968503
0.18448387,-3.70078731,2.48031497
0.18548387,-4.25196838,2.48031497
0.18648387,-4.72440958,2.48031497
0.18748387,-5.43307066,-2.36220479
0.18848387,5.98425198,-2.40157485
0.18948387,6.06299210,-2.36220479
0.19048387,6.53543282,-2.36220479
0.19148387,6.92913389,-2.44094491
0.19248387,7.16535425,-2.40157485
0.19348387,7.32283449,-2.40157485
0.19448387,7.24409437,-2.40157485
0.19548387,7.16535425,-2.44094491
0.19648387,6.85039377,-2.44094491
0.19748387,6.61417341,-2.44094491
0.19848387,6.29921246,-2.44094491
0.19948387,6.06299210,-2.44094491
0.20048387,5.82677174,-2.48031497
0.20148387,5.66929150,-2.44094491
0.20248387,5.43307066,-2.44094491
0.20348387,5.35433054,-2.48031497
0.20448387,5.11811018,-2.44094491
0.20548387,4.96062994,-2.48031497
0.20648387,4.72440958,-2.48031497
0.20748387,4.48818874,-2.48031497
0.20848387,4.25196838,-2.48031497
0.20948387,4.01574802,-2.48031497
0.21048387,3.70078731,-2.48031497
0.21148387,3.46456695,-2.48031497
0.21248387,3.22834635,-2.48031497
0.21348387,3.07086611,-2.48031497
0.21448387,2.83464575,-2.48031497
0.21548387,2.67716527,-2.48031497
0.21648387,2.44094491,-2.48031497
0.21748387,2.28346467,-2.48031497
0.21848387,2.12598419,-2.48031497
0.21948387,2.04724407,-2.48031497
0.22048387,1.96850395,-2.44094491
0.22148387,1.88976383,-2.48031497
0.22248387,1.81102359,-2.51968503
0.22348387,1.81102359,-2.44094491
0.22448387,1.73228347,-2.48031497
0.22548387,1.65354335,-2.48031497
0.22648387,1.57480311,-2.48031497
0.22748387,1.49606299,-2.48031497
0.22848387,1.41732287,-2.48031497
0.22948387,1.33858263,-2.48031497
0.23048387,1.18110240,-2.48031497
0.23148387,1.02362204,-2.48031497
0.23248387,0.86614174,-2.48031497
0.23348387,0.78740156,-2.48031497
0.23448387,0.62992126,-2.48031497
0.23548387,0.47244096,-2.51968503
0.23648387,0.31496063,-2.48031497
0.23748387,0.23622048,-2.48031497
0.23848387,0.15748031,-2.51968503
0.23948387,0.07874016,-2.48031497
0.24048387,0.00000000,-2.51968503
0.24148387,-0.07874016,-2.51968503
0.24248387,-0.07874016,-2.48031497
0.24348387,-0.07874016,-2.48031497
0.24448387,-0.07874016,-2.51968503
0.24548387,-0.15748031,-2.48031497
0.24648387,-0.15748031,-2.48031497
0.24748387,-0.23622048,-2.48031497
0.24848387,-0.31496063,-2.51968503
0.24948387,-0.39370078,-2.51968503
0.25048387,-0.39370078,2.36220479
0.25148387,0.62992126,2.40157485
0.25248387,0.70866144,2.40157485
0.25348387,0.86614174,2.36220479
0.25448387,1.02362204,2.40157485
0.25548387,1.33858263,2.40157485
0.25648387,1.57480311,2.44094491
0.25748387,1.96850395,2.44094491
0.25848387,2.28346467,2.40157485
0.25948387,2.67716527,2.40157485
0.26048387,2.91338587,2.44094491
0.26148387,3.22834635,2.44094491
0.26248387,3.38582683,2.48031497
0.26348387,3.62204719,2.44094491
0.26448387,3.85826778,2.44094491
0.26548387,4.01574802,2.44094491
0.26648387,4.25196838,2.48031497
0.26748387,4.48818874,2.44094491
0.26848387,4.64566946,2.48031497
0.26948387,4.96062994,2.44094491
0.27048387,5.11811018,2.48031497
0.27148387,5.35433054,2.48031497
0.27248387,5.51181078,2.48031497
0.27348387,5.74803162,2.48031497
0.27448387,5.90551186,2.44094491
0.27548387,6.06299210,2.48031497
0.27648387,6.14173222,2.44094491
0.27748387,6.29921246,2.48031497
0.27848387,6.37795258,2.44094491
0.27948387,6.37795258,2.48031497
0.28048387,6.37795258,2.48031497
0.28148387,6.37795258,2.48031497
0.28248387,6.29921246,2.48031497
0.28348387,6.14173222,2.48031497
0.28448387,6.06299210,2.48031497
0.28548387,5.90551186,2.48031497
0.28648387,5.66929150,2.48031497
0.28748387,5.51181078,2.48031497
0.28848387,5.27559042,2.48031497
0.28948387,5.11811018,2.48031497
0.29048387,4.80314970,2.48031497
0.29148387,4.56692934,2.48031497
0.29248387,4.33070850,2.48031497
0.29348387,4.01574802,2.48031497
0.29448387,3.70078731,2.48031497
0.29548387,3.38582683,2.48031497
0.29648387,2.99212599,2.48031497
0.29748387,2.59842515,2.48031497
0.29848387,2.20472431,2.48031497
0.29948387,1.73228347,2.48031497
0.30048387,1.25984251,2.48031497
0.30148387,0.78740156,2.48031497
0.30248387,0.15748031,2.48031497
0.30348387,-0.31496063,2.48031497
0.30448387,-0.94488192,2.48031497
0.30548387,-1.49606299,2.48031497
0.30648387,-2.04724407,2.51968503
0.30748387,-2.59842515,2.48031497
0.30848387,-3.07086611,2.48031497
0.30948387,-3.62204719,2.51968503
0.31048387,-4.09448814,2.44094491
0.31148387,-4.56692934,2.48031497
0.31248387,-5.19685030,-2.32283473
0.31348387,5.74803162,-2.40157485
0.31448387,5.82677174,-2.36220479
0.31548387,6.29921246,-2.40157485
0.31648387,6.69291353,-2.40157485
0.31748387,7.00787401,-2.40157485
0.31848387,7.08661413,-2.44094491
0.31948387,7.08661413,-2.44094491
0.32048387,6.92913389,-2.44094491
0.32148387,6.77165365,-2.44094491
0.32248387,6.61417341,-2.44094491
0.32348387,6.37795258,-2.44094491
0.32448387,6.22047234,-2.44094491
0.32548387,6.06299210,-2.48031497
0.32648387,5.82677174,-2.48031497
0.32748387,5.66929150,-2.44094491
0.32848387,5.43307066,-2.48031497
0.32948387,5.27559042,-2.48031497
0.33048387,5.03937006,-2.48031497
0.33148387,4.72440958,-2.48031497
0.33248387,4.40944862,-2.48031497
0.33348387,4.17322826,-2.48031497
0.33448387,3.93700790,-2.48031497
0.33548387,3.62204719,-2.48031497
0.33648387,3.46456695,-2.48031497
0.33748387,3.22834635,-2.48031497
0.33848387,2.99212599,-2.48031497
0.33948387,2.83464575,-2.48031497
0.34048387,2.67716527,-2.48031497
0.34148387,2.51968503,-2.48031497
0.34248387,2.44094491,-2.48031497
0.34348387,2.36220479,-2.48031497
0.34448387,2.28346467,-2.48031497
0.34548387,2.20472431,-2.51968503
0.34648387,2.12598419,-2.48031497
0.34748387,2.04724407,-2.48031497
0.34848387,1.96850395,-2.48031497
0.34948387,1.88976383,-2.51968503
0.35048387,1.73228347,-2.51968503
0.35148387,1.57480311,-2.51968503
0.35248387,1.49606299,-2.48031497
0.35348387,1.33858263,-2.48031497
0.35448387,1.18110240,-2.48031497
0.35548387,1.02362204,-2.51968503
0.35648387,0.86614174,-2.51968503
0.35748387,0.78740156,-2.51968503
0.35848387,0.62992126,-2.51968503
0.35948387,0.47244096,-2.48031497
0.36048387,0.39370078,-2.48031497
0.36148387,0.31496063,-2.48031497
0.36248387,0.23622048,-2.48031497
0.36348387,0.23622048,-2.51968503
0.36448387,0.15748031,-2.48031497
0.36548387,0.15748031,-2.48031497
0.36648387,0.15748031,-2.48031497
0.36748387,0.07874016,-2.48031497
0.36848387,0.07874016,-2.51968503
0.36948387,0.00000000,-2.48031497
0.37048387,-0.15748031,-2.48031497
0.37148387,-0.15748031,-2.51968503
0.37248387,-0.31496063,-2.51968503
0.37348387,-0.39370078,-2.48031497
0.37448387,-0.55118108,-2.48031497
0.37548387,-0.47244096,2.36220479
0.37648387,0.78740156,2.36220479
0.37748387,0.86614174,2.36220479
0.37848387,1.02362204,2.40157485
0.37948387,1.18110240,2.40157485
0.38048387,1.41732287,2.40157485
0.38148387,1.65354335,2.44094491
0.38248387,1.88976383,2.40157485
0.38348387,2.20472431,2.44094491
0.38448387,2.51968503,2.44094491
0.38548387,2.83464575,2.44094491
0.38648387,2.99212599,2.48031497
0.38748387,3.22834635,2.44094491
0.38848387,3.46456695,2.44094491
0.38948387,3.70078731,2.44094491
0.39048387,3.93700790,2.44094491
0.39148387,4.17322826,2.44094491
0.39248387,4.40944862,2.48031497
0.39348387,4.72440958,2.48031497
0.39448387,4.96062994,2.48031497
0.39548387,5.19685030,2.44094491
0.39648387,5.35433054,2.48031497
0.39748387,5.59055138,2.48031497
0.39848387,5.74803162,2.44094491
0.39948387,5.90551186,2.48031497
0.40048387,6.06299210,2.48031497
0.40148387,6.14173222,2.51968503
0.40248387,6.14173222,2.48031497
0.40348387,6.22047234,2.48031497
0.40448387,6.14173222,2.48031497
0.40548387,6.14173222,2.48031497
0.40648387,6.06299210,2.48031497
0.40748387,5.98425198,2.48031497
0.40848387,5.90551186,2.48031497
0.40948387,5.82677174,2.48031497
0.41048387,5.66929150,2.48031497
0.41148387,5.59055138,2.48031497
0.41248387,5.35433054,2.48031497
0.41348387,5.19685030,2.48031497
0.41448387,4.96062994,2.48031497
0.41548387,4.80314970,2.51968503
0.41648387,4.48818874,2.51968503
0.41748387,4.25196838,2.48031497
0.41848387,3.93700790,2.48031497
0.41948387,3.62204719,2.48031497
0.42048387,3.30708671,2.48031497
0.42148387,2.91338587,2.48031497
0.42248387,2.44094491,2.48031497
0.42348387,1.96850395,2.48031497
0.42448387,1.49606299,2.48031497
0.42548387,0.94488192,2.48031497
0.42648387,0.47244096,2.48031497
0.42748387,-0.07874016,2.48031497
0.42848387,-0.62992126,2.48031497
0.42948387,-1.10236216,2.51968503
0.43048387,-1.65354335,2.48031497
0.43148387,-2.12598419,2.48031497
0.43248387,-2.67716527,2.48031497
0.43348387,-3.14960623,2.48031497
0.43448387,-3.62204719,2.48031497
0.43548387,-4.09448814,2.48031497
0.43648387,-4.56692934,2.48031497
0.43748387,-5.11811018,-2.36220479
0.43848387,5.59055138,-2.40157485
0.43948387,5.74803162,-2.40157485
0.44048387,6.14173222,-2.40157485
0.44148387,6.53543282,-2.40157485
0.44248387,6.85039377,-2.40157485
0.44348387,7.00787401,-2.44094491
0.44448387,7.00787401,-2.44094491
0.44548387,7.00787401,-2.44094491
0.44648387,6.85039377,-2.44094491
0.44748387,6.61417341,-2.44094491
0.44848387,6.37795258,-2.44094491
0.44948387,6.14173222,-2.44094491
0.45048387,5.98425198,-2.44094491
0.45148387,5.74803162,-2.44094491
0.45248387,5.51181078,-2.48031497
0.45348387,5.27559042,-2.48031497
0.45448387,4.96062994,-2.48031497
0.45548387,4.72440958,-2.48031497
0.45648387,4.48818874,-2.48031497
0.45748387,4.17322826,-2.48031497
0.45848387,3.93700790,-2.48031497
0.45948387,3.62204719,-2.48031497
0.46048387,3.38582683,-2.48031497
0.46148387,3.22834635,-2.48031497
0.46248387,3.07086611,-2.48031497
0.46348387,2.99212599,-2.48031497
0.46448387,2.83464575,-2.48031497
0.46548387,2.75590539,-2.51968503
0.46648387,2.67716527,-2.48031497
0.46748387,2.67716527,-2.48031497
0.46848387,2.51968503,-2.48031497
0.46948387,2.44094491,-2.51968503
0.47048387,2.36220479,-2.48031497
0.47148387,2.20472431,-2.48031497
0.47248387,2.04724407,-2.48031497
0.47348387,1.96850395,-2.48031497
0.47448387,1.81102359,-2.48031497
0.47548387,1.65354335,-2.48031497
0.47648387,1.49606299,-2.51968503
0.47748387,1.33858263,-2.48031497
0.47848387,1.18110240,-2.48031497
0.47948387,1.02362204,-2.51968503
0.48048387,0.86614174,-2.51968503
0.48148387,0.78740156,-2.51968503
0.48248387,0.62992126,-2.48031497
0.48348387,0.55118108,-2.51968503
0.48448387,0.55118108,-2.48031497
0.48548387,0.47244096,-2.51968503
0.48648387,0.39370078,-2.48031497
0.48748387,0.47244096,-2.51968503
0.48848387,0.39370078,-2.51968503
0.48948387,0.31496063,-2.48031497
0.49048387,0.31496063,-2.48031497
0.49148387,0.23622048,-2.51968503
0.49248387,0.07874016,-2.51968503
0.49348387,0.07874016,-2.51968503
0.49448387,-0.07874016,-2.51968503
0.49548387,-0.15748031,-2.51968503
0.49648387,-0.31496063,-2.51968503
0.49748387,-0.39370078,-2.51968503
0.49848387,-0.55118108,-2.55905509
0.49948387,-0.62992126,-2.51968503
0.50048387,-0.55118108,2.32283473
0.50148387,0.94488192,2.36220479
0.50248387,0.94488192,2.36220479
0.50348387,1.02362204,2.36220479
0.50448387,1.10236216,2.40157485
0.50548387,1.25984251,2.40157485
0.50648387,1.41732287,2.40157485
0.50748387,1.73228347,2.44094491
0.50848387,1.96850395,2.40157485
0.50948387,2.28346467,2.44094491
0.51048387,2.51968503,2.44094491
0.51148387,2.83464575,2.48031497
0.51248387,3.14960623,2.44094491
0.51348387,3.38582683,2.44094491
0.51448387,3.62204719,2.48031497
0.51548387,3.93700790,2.44094491
0.51648387,4.17322826,2.44094491
0.51748387,4.40944862,2.48031497
0.51848387,4.72440958,2.48031497
0.51948387,4.96062994,2.48031497
0.52048387,5.19685030,2.44094491
0.52148387,5.43307066,2.48031497
0.52248387,5.59055138,2.48031497
0.52348387,5.74803162,2.44094491
0.52448387,5.90551186,2.48031497
0.52548387,5.98425198,2.44094491
0.52648387,5.98425198,2.48031497
0.52748387,6.06299210,2.48031497
0.52848387,6.06299210,2.48031497
0.52948387,6.06299210,2.48031497
0.53048387,6.06299210,2.48031497
0.53148387,6.06299210,2.48031497
0.53248387,5.98425198,2.48031497
0.53348387,5.90551186,2.48031497
0.53448387,5.82677174,2.48031497
0.53548387,5.74803162,2.48031497
0.53648387,5.59055138,2.48031497
0.53748387,5.43307066,2.48031497
0.53848387,5.27559042,2.48031497
0.53948387,5.11811018,2.48031497
0.54048387,4.88188982,2.48031497
0.54148387,4.72440958,2.48031497
0.54248387,4.40944862,2.48031497
0.54348387,4.09448814,2.48031497
0.54448387,3.70078731,2.48031497
0.54548387,3.30708671,2.44094491
0.54648387,2.91338587,2.48031497
0.54748387,2.44094491,2.48031497
0.54848387,1.88976383,2.48031497
0.54948387,1.49606299,2.48031497
0.55048387,0.94488192,2.48031497
0.55148387,0.47244096,2.48031497
0.55248387,0.00000000,2.48031497
0.55348387,-0.55118108,2.48031497
0.55448387,-1.02362204,2.48031497
0.55548387,-1.57480311,2.48031497
0.55648387,-2.04724407,2.48031497
0.55748387,-2.51968503,2.51968503
0.55848387,-2.99212599,2.48031497
0.55948387,-3.46456695,2.48031497
0.56048387,-3.93700790,2.48031497
0.56148387,-4.33070850,2.51968503
0.56248387,-4.96062994,-2.36220479
0.56348387,5.35433054,-2.36220479
0.56448387,5.59055138,-2.36220479
0.56548387,6.14173222,-2.40157485
0.56648387,6.53543282,-2.40157485
0.56748387,6.92913389,-2.40157485
0.56848387,7.08661413,-2.44094491
0.56948387,7.08661413,-2.44094491
0.57048387,7.00787401,-2.44094491
0.57148387,6.92913389,-2.44094491
0.57248387,6.69291353,-2.44094491
0.57348387,6.37795258,-2.44094491
0.57448387,6.14173222,-2.44094491
0.57548387,5.90551186,-2.44094491
0.57648387,5.66929150,-2.44094491
0.57748387,5.35433054,-2.48031497
0.57848387,5.11811018,-2.48031497
0.57948387,4.88188982,-2.48031497
0.58048387,4.56692934,-2.44094491
0.58148387,4.25196838,-2.48031497
0.58248387,4.09448814,-2.48031497
0.58348387,3.85826778,-2.51968503
0.58448387,3.62204719,-2.48031497
0.58548387,3.46456695,-2.48031497
0.58648387,3.30708671,-2.51968503
0.58748387,3.22834635,-2.48031497
0.58848387,3.14960623,-2.48031497
0.58948387,3.07086611,-2.48031497
0.59048387,2.91338587,-2.48031497
